INDEX VERSION 1.132+/Users/ramanujdas/Documents/Training-Programs/verizon-2024/spring-boot-apps/.metadata/.plugins/org.eclipse.jdt.core
3122994832.index
3753167270.index
1304397129.index
1868825324.index
3300815447.index
634184497.index
675911920.index
3689132643.index
1188118110.index
4273626145.index
768093548.index
3936841024.index
3383918866.index
2430975176.index
892764515.index
710592858.index
2986677713.index
4198182542.index
1817302122.index
3492579868.index
2039031789.index
3278718261.index
4160583433.index
379478074.index
1638265970.index
2090317751.index
3291677307.index
1605941227.index
2468985301.index
3282256493.index
126197488.index
1024405946.index
886038346.index
3848395850.index
1986709895.index
4079746933.index
1136539407.index
2555253864.index
425841945.index
3236875506.index
4210390252.index
2331127585.index
582600412.index
264972158.index
397670606.index
707991748.index
174360101.index
2462857409.index
667992925.index
1064190386.index
3934660929.index
2603160678.index
2110130499.index
1688146585.index
2139569812.index
1312591818.index
4030457455.index
1869628932.index
2703949684.index
3870541399.index
525271891.index
1843806590.index
232851896.index
230970649.index
3873402453.index
4159072074.index
774378375.index
1202470939.index
3105051327.index
909069454.index
2939207788.index
3726150005.index
327532186.index
983300536.index
1759452013.index
4240324812.index
2606941448.index
3047327988.index
4114494546.index
3416106794.index
2633232846.index
1629304168.index
2321767815.index
498468511.index
158100221.index
1644534713.index
1895791868.index
3103040829.index
518080629.index
3330394028.index
2375822018.index
1751799615.index
1640898502.index
2643637223.index
1146819214.index
3949704490.index
2270783210.index
1865797976.index
2883681716.index
3690268542.index
2586745136.index
2207673129.index
4274394799.index
1667093125.index
1488608303.index
3154769892.index
